x,y,theta,v,phi,a,omega,jerk
16.5,50,-1.8314,1,0,0,0,10
16.5121,49.9576,-1.78795,1.01587,0.00154903,0.357132,5,10
16.5255,49.9144,-1.74526,1.04412,0.177394,0.713713,2.3594,10
16.5402,49.8699,-1.70014,1.08455,0.26,1.06975,1.34199e-11,10
16.5564,49.8237,-1.65408,1.13705,0.26,1.42527,1.55416e-11,10
16.5742,49.7755,-1.60864,1.20158,0.26,1.78027,1.72838e-11,10
16.5936,49.7249,-1.56381,1.27808,0.26,2.13477,1.81069e-11,10
16.615,49.6716,-1.51955,1.36652,0.26,2.4888,1.81619e-11,10
16.6386,49.6153,-1.47587,1.46683,0.26,2.84236,1.76073e-11,10
16.6645,49.5557,-1.43276,1.579,0.26,3.19549,1.6596e-11,10
16.6932,49.4924,-1.39021,1.70296,0.26,3.54818,1.5258e-11,10
16.725,49.4252,-1.34824,1.83868,0.26,3.90048,1.36907e-11,10
16.7603,49.3539,-1.30683,1.98614,0.26,4.25239,1.19652e-11,10
16.7995,49.2782,-1.266,2.14528,0.26,4.60395,1.01306e-11,10
16.8431,49.1981,-1.22574,2.31609,0.26,4.95517,8.20597e-12,10
16.8916,49.1132,-1.18607,2.49853,0.26,5.30607,6.19563e-12,10
16.9455,49.0236,-1.14697,2.69257,0.26,5.65669,4.08062e-12,10
17.0054,48.9292,-1.10845,2.89819,0.26,6.00704,1.82428e-12,-0.990611
17.0717,48.8298,-1.0705,3.11537,0.26,5.97235,-1.79982e-12,-10
17.1451,48.7256,-1.03311,3.33061,0.26,5.62203,-6.31979e-12,-10
17.2259,48.6169,-0.996321,3.53285,0.26,5.27151,-1.08472e-11,-10
17.3142,48.5046,-0.960205,3.72208,0.26,4.92084,-1.56546e-11,-10
17.41,48.3893,-0.924822,3.89828,0.26,4.57002,-2.10189e-11,-10
17.5133,48.2717,-0.890214,4.06143,0.26,4.2191,-2.72624e-11,-10
17.6238,48.1527,-0.856413,4.21154,0.26,3.86809,-3.47867e-11,-10
17.7415,48.0328,-0.823438,4.34858,0.26,3.51703,-4.41383e-11,-10
17.8661,47.9126,-0.791296,4.47255,0.26,3.16593,-5.60841e-11,-10
17.9972,47.7927,-0.759986,4.58346,0.26,2.81483,-7.17506e-11,-10
18.1346,47.6736,-0.729497,4.68129,0.26,2.46376,-9.28482e-11,-10
18.2779,47.5558,-0.699814,4.76604,0.26,2.11274,-1.22073e-10,-10
18.4266,47.4398,-0.670913,4.83771,0.26,1.76181,-1.63844e-10,-10
18.5803,47.326,-0.642767,4.89631,0.26,1.41098,-2.25748e-10,-10
18.7386,47.2147,-0.615343,4.94183,0.26,1.06028,-3.21524e-10,-10
18.901,47.1063,-0.588608,4.97429,0.26,0.70975,-4.77756e-10,-10
19.0669,47.0011,-0.562525,4.99367,0.26,0.35941,-7.50369e-10,-10
19.2359,46.8993,-0.537056,5,0.26,0.00928921,-1.26756e-09,-0.265041
19.4074,46.8013,-0.512163,5,0.26,9.87081e-06,-2.3892e-09,-0.000281635
19.5811,46.7069,-0.487777,5,0.26,1.0489e-08,-5.3858e-09,-2.99268e-07
19.7568,46.6164,-0.463801,5,0.26,1.13024e-11,-1.69732e-08,-3.18524e-10
19.9344,46.5295,-0.440141,5,0.26,1.50537e-13,-1.12794e-06,2.22788e-13
20.1139,46.4464,-0.416703,5,0.26,1.58337e-13,-4.46577,-3.28378e-12
20.295,46.367,-0.393393,5,0.103647,4.33683e-14,-2.51154,-1.24313e-12
20.4778,46.2914,-0.384299,5,0.0157149,-1.54937e-16,-0.672823,-1.75963e-13
20.6611,46.2173,-0.382933,5,-0.00784159,-6.31557e-15,0.0297251,5.33076e-13
20.8446,46.1433,-0.383623,5,-0.00680087,1.23479e-14,0.123341,-1.05775e-13
21.028,46.0693,-0.384218,5,-0.00248253,8.64466e-15,0.0630415,-8.57393e-14
21.2114,45.9951,-0.384435,5,-0.000275355,5.64284e-15,0.0150206,7.57518e-14
21.3947,45.9209,-0.384459,5,0.000250538,8.29499e-15,-0.00177381,-3.09933e-13
21.5781,45.8468,-0.384437,5,0.000188435,-2.55608e-15,-0.00336371,1.69414e-13
21.7615,45.7726,-0.384421,5,7.06668e-05,3.37529e-15,-0.00156607,-1.13874e-13
21.9448,45.6984,-0.384415,5,1.58365e-05,-6.11544e-16,-0.000325474,-1.41094e-13
22.1282,45.6242,-0.384413,5,4.4412e-06,-5.55137e-15,7.02582e-05,1.77446e-13
22.3115,45.5501,-0.384413,5,6.90104e-06,6.6119e-16,9.03734e-05,-9.20194e-14
22.4949,45.4759,-0.384412,5,1.00651e-05,-2.5605e-15,3.84729e-05,-2.92758e-14
22.6782,45.4017,-0.384411,5,1.14121e-05,-3.58547e-15,6.72351e-06,-1.56906e-14
22.8616,45.3275,-0.38441,5,1.16475e-05,-4.13482e-15,-2.51611e-06,4.6504e-13
23.045,45.2534,-0.384409,5,1.15594e-05,1.21467e-14,-2.50635e-06,-2.45859e-14
23.2283,45.1792,-0.384408,5,1.14717e-05,1.12859e-14,-5.92163e-07,-3.53444e-13
23.4117,45.105,-0.384407,5,1.1451e-05,-1.08849e-15,1.74492e-06,-2.04217e-13
23.595,45.0308,-0.384406,5,1.1512e-05,-8.23832e-15,4.40858e-06,-1.07344e-13
23.7784,44.9567,-0.384405,5,1.16664e-05,-1.19966e-14,3.22695e-06,5.62067e-13
23.9618,44.8825,-0.384404,5,1.17794e-05,7.68197e-15,-1.62873e-05,-2.33828e-13
24.1451,44.8083,-0.384403,5,1.12091e-05,-5.04572e-16,-7.62341e-05,-8.06804e-14
24.3285,44.7341,-0.384402,5,8.54007e-06,-3.32927e-15,-0.00016082,4.68937e-14
24.5118,44.66,-0.384401,5,2.90953e-06,-1.68748e-15,-7.6238e-05,3.59988e-13
24.6952,44.5858,-0.384401,5,2.40329e-07,1.09161e-14,-1.63103e-05,-6.62529e-13
24.8786,44.5116,-0.384401,5,-3.30716e-07,-1.22797e-14,3.16416e-06,1.7101e-13
25.0619,44.4374,-0.384401,5,-2.19935e-07,-6.29249e-15,4.33276e-06,2.08274e-13
25.2453,44.3633,-0.384401,5,-6.82387e-08,9.99368e-16,1.87738e-06,-2.53599e-13
25.4286,44.2891,-0.384401,5,-2.50905e-09,-7.87938e-15,3.42392e-07,-1.20213e-13
25.612,44.2149,-0.384401,5,9.47858e-09,-1.20881e-14,-1.10476e-07,1.6214e-14
25.7954,44.1407,-0.384401,5,5.61065e-09,-1.15205e-14,-1.15162e-07,1.33582e-13
25.9787,44.0666,-0.384401,5,1.57868e-09,-6.84363e-15,-4.57059e-08,3.94915e-13
26.1621,43.9924,-0.384401,5,-2.15536e-11,6.98273e-15,-6.79793e-09,-4.97197e-13
26.3454,43.9182,-0.384401,5,-2.59559e-10,-1.04246e-14,3.53308e-09,4.94115e-13
26.5288,43.844,-0.384401,5,-1.3586e-10,6.87483e-15,3.02109e-09,1.25835e-13
26.7121,43.7699,-0.384401,5,-3.00878e-11,1.12804e-14,1.09662e-09,-2.31993e-13
26.8955,43.6957,-0.384401,5,8.30636e-12,3.15814e-15,1.20678e-10,-9.47005e-14
27.0789,43.6215,-0.384401,5,1.25315e-11,-1.57418e-16,-1.09439e-10,3.22052e-13
27.2622,43.5474,-0.384401,5,8.69985e-12,1.11179e-14,-8.06187e-11,-4.58786e-13
27.4456,43.4732,-0.384401,5,5.87728e-12,-4.94462e-15,-2.81657e-11,1.65706e-13
27.6289,43.399,-0.384401,5,4.89116e-12,8.569e-16,-3.89354e-12,-4.77887e-14
27.8123,43.3248,-0.384401,5,4.75484e-12,-8.1623e-16,1.13452e-12,3.68906e-13
27.9957,43.2507,-0.384401,5,4.79457e-12,1.20995e-14,3.14262e-14,-5.75374e-13
28.179,43.1765,-0.384401,5,4.79567e-12,-8.04489e-15,-1.32329e-12,-3.66925e-14
28.3624,43.1023,-0.384401,5,4.74934e-12,-9.32953e-15,-1.88107e-12,-9.93447e-16
28.5457,43.0281,-0.384401,5,4.68348e-12,-9.36431e-15,-1.94811e-12,2.19023e-13
28.7291,42.954,-0.384401,5,4.61527e-12,-1.69609e-15,-1.87905e-12,2.05846e-13
28.9125,42.8798,-0.384401,5,4.54948e-12,5.51076e-15,-1.80718e-12,-2.41734e-13
29.0958,42.8056,-0.384401,5,4.48621e-12,-2.95258e-15,-1.75873e-12,4.06719e-13
29.2792,42.7314,-0.384401,5,4.42464e-12,1.12871e-14,-1.72649e-12,-1.1199e-13
29.4625,42.6573,-0.384401,5,4.36419e-12,7.36618e-15,-1.70587e-12,-2.93764e-13
29.6459,42.5831,-0.384401,5,4.30446e-12,-2.91879e-15,-1.66675e-12,-9.28034e-14
29.8293,42.5089,-0.384401,5,4.24611e-12,-6.16793e-15,-1.64789e-12,-6.69065e-14
30.0126,42.4347,-0.384401,5,4.18841e-12,-8.51039e-15,-1.60499e-12,5.57164e-13
30.196,42.3606,-0.384401,5,4.13222e-12,1.09965e-14,-1.59467e-12,-5.41148e-14
30.3793,42.2864,-0.384401,5,4.07639e-12,9.10185e-15,-1.54731e-12,-5.8852e-13
30.5627,42.2122,-0.384401,5,4.02222e-12,-1.15028e-14,-1.53215e-12,4.80837e-13
30.7461,42.1381,-0.384401,5,3.96857e-12,5.33175e-15,-1.51375e-12,-1.07949e-13
30.9294,42.0639,-0.384401,5,3.91557e-12,1.55234e-15,-1.46428e-12,3.01426e-13
31.1128,41.9897,-0.384401,5,3.86431e-12,1.21056e-14,-1.46359e-12,1.52505e-14
31.2961,41.9155,-0.384401,5,3.81307e-12,1.26395e-14,-1.43935e-12,-1.43773e-14
31.4795,41.8414,-0.384401,5,3.76267e-12,1.21361e-14,-1.42318e-12,-1.85091e-14
31.6629,41.7672,-0.384401,5,3.71284e-12,1.14881e-14,-1.38429e-12,-3.41689e-13
31.8462,41.693,-0.384401,5,3.66438e-12,-4.74773e-16,-1.37842e-12,-1.26465e-13
32.0296,41.6188,-0.384401,5,3.61612e-12,-4.90244e-15,-1.35241e-12,3.33982e-14
32.2129,41.5447,-0.384401,5,3.56877e-12,-3.73314e-15,-1.32674e-12,-1.8378e-13
32.3963,41.4705,-0.384401,5,3.52232e-12,-1.01675e-14,-1.32161e-12,3.79797e-13
32.5797,41.3963,-0.384401,5,3.47605e-12,3.12961e-15,-1.28971e-12,-2.82224e-13
32.763,41.3221,-0.384401,5,3.43089e-12,-6.75132e-15,-1.27638e-12,8.84548e-14
32.9464,41.248,-0.384401,5,3.3862e-12,-3.65443e-15,-1.27219e-12,3.93164e-13
33.1297,41.1738,-0.384401,5,3.34166e-12,1.01106e-14,-1.23012e-12,-7.16836e-14
33.3131,41.0996,-0.384401,5,3.29859e-12,7.60093e-15,-1.21946e-12,-3.57093e-13
33.4964,41.0254,-0.384401,5,3.2559e-12,-4.90124e-15,-1.21623e-12,4.73656e-13
33.6798,40.9513,-0.384401,5,3.21332e-12,1.16819e-14,-1.18229e-12,-2.46604e-13
33.8632,40.8771,-0.384401,5,3.17192e-12,3.04806e-15,-1.16175e-12,1.3535e-14
34.0465,40.8029,-0.384401,5,3.13125e-12,3.52193e-15,-1.17202e-12,-6.24617e-14
34.2299,40.7288,-0.384401,5,3.09022e-12,1.33509e-15,-1.15656e-12,-2.81835e-13
34.4132,40.6546,-0.384401,5,3.04972e-12,-8.53223e-15,-1.13759e-12,-2.27528e-14
34.5966,40.5804,-0.384401,5,3.00989e-12,-9.32883e-15,-1.11053e-12,6.04468e-13
34.78,40.5062,-0.384401,5,2.97101e-12,1.18342e-14,-1.09915e-12,-4.85866e-13
34.9633,40.4321,-0.384401,5,2.93253e-12,-5.17648e-15,-1.08503e-12,3.50747e-13
35.1467,40.3579,-0.384401,5,2.89454e-12,7.10351e-15,-1.08581e-12,1.92667e-14
35.33,40.2837,-0.384401,5,2.85653e-12,7.77806e-15,-1.06615e-12,-3.61618e-13
35.5134,40.2095,-0.384401,5,2.8192e-12,-4.88255e-15,-1.05178e-12,-5.99428e-14
35.6968,40.1354,-0.384401,5,2.78237e-12,-6.98121e-15,-1.03867e-12,2.71395e-14
35.8801,40.0612,-0.384401,5,2.74601e-12,-6.03103e-15,-1.02216e-12,1.41389e-13
36.0635,39.987,-0.384401,5,2.71022e-12,-1.08087e-15,-1.01119e-12,-2.29596e-13
36.2468,39.9128,-0.384401,5,2.67482e-12,-9.11926e-15,-1.00281e-12,1.7802e-13
36.4302,39.8387,-0.384401,5,2.63971e-12,-2.8866e-15,-9.95649e-13,1.70814e-13
36.6136,39.7645,-0.384401,5,2.60485e-12,3.09375e-15,-9.88328e-13,-2.8129e-13
36.7969,39.6903,-0.384401,5,2.57025e-12,-6.7545e-15,-9.74811e-13,2.49158e-13
36.9803,39.6162,-0.384401,5,2.53612e-12,1.96877e-15,-9.61749e-13,-3.25153e-13
37.1636,39.542,-0.384401,5,2.50244e-12,-9.41514e-15,-9.5163e-13,-7.898e-16
37.347,39.4678,-0.384401,5,2.46913e-12,-9.44279e-15,-9.50194e-13,4.349e-13
37.5304,39.3936,-0.384401,5,2.43586e-12,5.78349e-15,-9.37349e-13,1.99135e-14
37.7137,39.3195,-0.384401,5,2.40304e-12,6.48068e-15,-9.19595e-13,-5.09098e-13
37.8971,39.2453,-0.384401,5,2.37085e-12,-1.13433e-14,-9.12907e-13,-2.86624e-14
38.0804,39.1711,-0.384401,5,2.33888e-12,-1.23468e-14,-8.98712e-13,1.00591e-13
38.2638,39.0969,-0.384401,5,2.30742e-12,-8.82505e-15,-8.92026e-13,5.90025e-13
38.4472,39.0228,-0.384401,5,2.27619e-12,1.18323e-14,-8.9489e-13,-6.313e-13
38.6305,38.9486,-0.384401,5,2.24486e-12,-1.02702e-14,-8.80147e-13,2.80221e-13
38.8139,38.8744,-0.384401,5,2.21404e-12,-4.59321e-16,-8.73299e-13,3.54848e-13
38.9972,38.8002,-0.384401,5,2.18346e-12,1.19643e-14,-8.67954e-13,-5.54368e-13
39.1806,38.7261,-0.384401,5,2.15308e-12,-7.44472e-15,-8.59222e-13,2.64529e-13
39.364,38.6519,-0.384401,5,2.12299e-12,1.81671e-15,-8.47589e-13,-1.15419e-13
39.5473,38.5777,-0.384401,5,2.09332e-12,-2.22422e-15,-8.29179e-13,3.53749e-13
39.7307,38.5035,-0.384401,5,2.06429e-12,1.01609e-14,-8.3777e-13,-5.75354e-13
39.914,38.4294,-0.384401,5,2.03496e-12,-9.98284e-15,-8.33754e-13,1.93445e-13
40.0974,38.3552,-0.384401,5,2.00577e-12,-3.21013e-15,-8.23964e-13,1.30853e-13
40.2807,38.281,-0.384401,5,1.97692e-12,1.37117e-15,-8.02431e-13,-1.87317e-13
40.4641,38.2069,-0.384401,5,1.94882e-12,-5.18697e-15,-8.0238e-13,3.53869e-13
40.6475,38.1327,-0.384401,5,1.92073e-12,7.20234e-15,-7.9799e-13,4.51795e-14
40.8308,38.0585,-0.384401,5,1.89279e-12,8.78412e-15,-8.05209e-13,-9.06579e-14
41.0142,37.9843,-0.384401,5,1.8646e-12,5.6101e-15,-7.83918e-13,1.16173e-13
41.1975,37.9102,-0.384401,5,1.83715e-12,9.67745e-15,-7.77848e-13,-4.48775e-13
41.3809,37.836,-0.384401,5,1.80992e-12,-6.03461e-15,-7.79711e-13,7.55157e-14
41.5643,37.7618,-0.384401,5,1.78262e-12,-3.39073e-15,-7.5804e-13,4.35275e-14
41.7476,37.6876,-0.384401,5,1.75608e-12,-1.86679e-15,-7.58957e-13,1.03277e-13
41.931,37.6135,-0.384401,5,1.72951e-12,1.74903e-15,-7.58183e-13,-1.86748e-13
42.1143,37.5393,-0.384401,5,1.70296e-12,-4.7892e-15,-7.64938e-13,-1.10977e-13
42.2977,37.4651,-0.384401,5,1.67618e-12,-8.6746e-15,-7.47118e-13,4.06421e-13
42.4811,37.3909,-0.384401,5,1.65003e-12,5.55459e-15,-7.40669e-13,-4.29068e-13
42.6644,37.3168,-0.384401,5,1.62409e-12,-9.4675e-15,-7.33902e-13,3.95028e-13
42.8478,37.2426,-0.384401,5,1.5984e-12,4.36282e-15,-7.47529e-13,-3.51353e-13
43.0311,37.1684,-0.384401,5,1.57223e-12,-7.9384e-15,-7.20683e-13,8.3116e-14
43.2145,37.0942,-0.384401,5,1.54699e-12,-5.02843e-15,-7.23475e-13,-6.27149e-14
43.3979,37.0201,-0.384401,5,1.52166e-12,-7.22414e-15,-7.14196e-13,1.86048e-13
43.5812,36.9459,-0.384401,5,1.49666e-12,-7.10412e-16,-7.14652e-13,4.43174e-14
43.7646,36.8717,-0.384401,5,1.47164e-12,8.41185e-16,-7.07194e-13,2.5233e-14
43.9479,36.7976,-0.384401,5,1.44688e-12,1.72462e-15,-7.06784e-13,-3.42122e-13
44.1313,36.7234,-0.384401,5,1.42213e-12,-1.02534e-14,-7.06726e-13,3.03335e-13
44.3147,36.6492,-0.384401,5,1.39739e-12,3.66657e-16,-6.94493e-13,3.21372e-13
44.498,36.575,-0.384401,5,1.37307e-12,1.16182e-14,-6.92846e-13,-6.66449e-13
44.6814,36.5009,-0.384401,5,1.34882e-12,-1.17148e-14,-6.86245e-13,-1.1819e-14
44.8647,36.4267,-0.384401,5,1.32479e-12,-1.21286e-14,-6.85449e-13,1.49478e-13
45.0481,36.3525,-0.384401,5,1.30079e-12,-6.89526e-15,-6.85147e-13,4.22738e-13
45.2315,36.2783,-0.384401,5,1.2768e-12,7.90522e-15,-6.69653e-13,-3.81658e-13
45.4148,36.2042,-0.384401,5,1.25336e-12,-5.45699e-15,-6.81931e-13,1.95011e-13
45.5982,36.13,-0.384401,5,1.22948e-12,1.37052e-15,-6.73158e-13,2.78911e-13
45.7815,36.0558,-0.384401,5,1.20592e-12,1.11355e-14,-6.59082e-13,-1.50157e-13
45.9649,35.9816,-0.384401,5,1.18284e-12,5.8783e-15,-6.65831e-13,-2.49514e-13
46.1483,35.9075,-0.384401,5,1.15953e-12,-2.85743e-15,-6.67816e-13,2.36636e-13
46.3316,35.8333,-0.384401,5,1.13615e-12,5.42741e-15,-6.65075e-13,-3.22599e-13
46.515,35.7591,-0.384401,5,1.11286e-12,-5.8671e-15,-6.59329e-13,-4.59982e-14
46.6983,35.6849,-0.384401,5,1.08978e-12,-7.47754e-15,-6.38749e-13,5.01637e-13
46.8817,35.6108,-0.384401,5,1.06741e-12,1.00853e-14,-6.40344e-13,-9.78169e-14
47.065,35.5366,-0.384401,5,1.045e-12,6.6606e-15,-6.45727e-13,-5.05591e-13
47.2484,35.4624,-0.384401,5,1.02239e-12,-1.10406e-14,-6.42498e-13,5.46768e-13
47.4318,35.3883,-0.384401,5,9.99893e-13,8.10225e-15,-6.37095e-13,-3.73883e-13
47.6151,35.3141,-0.384401,5,9.77587e-13,-4.98777e-15,-6.3755e-13,4.39491e-13
47.7985,35.2399,-0.384401,5,9.55265e-13,1.03993e-14,-6.47333e-13,-1.07659e-13
47.9818,35.1657,-0.384401,5,9.32601e-13,6.62999e-15,-6.32797e-13,-5.18131e-13
48.1652,35.0916,-0.384401,5,9.10446e-13,-1.15103e-14,-6.21306e-13,4.28798e-13
48.3486,35.0174,-0.384401,5,8.88694e-13,3.50233e-15,-6.27582e-13,-2.93677e-13
48.5319,34.9432,-0.384401,5,8.66721e-13,-6.77959e-15,-6.31201e-13,1.76386e-13
48.7153,34.869,-0.384401,5,8.44622e-13,-6.04141e-16,-6.21016e-13,-3.17709e-13
48.8986,34.7949,-0.384401,5,8.22879e-13,-1.17274e-14,-6.33374e-13,-4.29084e-15
49.082,34.7207,-0.384401,5,8.00704e-13,-1.18777e-14,-6.25173e-13,4.68816e-13
49.2654,34.6465,-0.384401,5,7.78816e-13,4.53604e-15,-6.18809e-13,-6.07601e-14
49.4487,34.5723,-0.384401,5,7.5715e-13,2.40877e-15,-6.07106e-13,-3.47565e-13
49.6321,34.4982,-0.384401,5,7.35895e-13,-9.75981e-15,-6.15519e-13,2.58185e-13
49.8154,34.424,-0.384401,5,7.14344e-13,-7.20482e-16,-6.10879e-13,1.3224e-13
49.9988,34.3498,-0.384401,5,6.92957e-13,3.90937e-15,-6.19336e-13,-3.34109e-13
50.1822,34.2756,-0.384401,5,6.71273e-13,-7.78812e-15,-6.1193e-13,3.52483e-13
50.3655,34.2015,-0.384401,5,6.49848e-13,4.55265e-15,-5.9478e-13,-3.58988e-16
50.5489,34.1273,-0.384401,5,6.29024e-13,4.54009e-15,-6.00588e-13,2.45767e-14
50.7322,34.0531,-0.384401,5,6.07997e-13,5.40054e-15,-6.11489e-13,-2.53314e-13
50.9156,33.979,-0.384401,5,5.86588e-13,-3.46823e-15,-6.08375e-13,2.58683e-13
51.099,33.9048,-0.384401,5,5.65288e-13,5.58852e-15,-6.12203e-13,7.45368e-14
51.2823,33.8306,-0.384401,5,5.43854e-13,8.19813e-15,-5.90059e-13,-5.32853e-13
51.4657,33.7564,-0.384401,5,5.23195e-13,-1.04576e-14,-6.0089e-13,-4.86836e-14
51.649,33.6823,-0.384401,5,5.02157e-13,-1.21621e-14,-5.97178e-13,5.30152e-13
51.8324,33.6081,-0.384401,5,4.81249e-13,6.3991e-15,-6.00854e-13,-1.91955e-13
52.0158,33.5339,-0.384401,5,4.60212e-13,-3.21443e-16,-6.01163e-13,1.81606e-13
52.1991,33.4597,-0.384401,5,4.39164e-13,6.03675e-15,-5.8446e-13,4.09724e-14
52.3825,33.3856,-0.384401,5,4.18702e-13,7.47124e-15,-5.93528e-13,-2.38622e-13
52.5658,33.3114,-0.384401,5,3.97921e-13,-8.83169e-16,-5.9406e-13,-2.54598e-13
52.7492,33.2372,-0.384401,5,3.77123e-13,-9.79691e-15,-5.93175e-13,5.67401e-13
52.9326,33.163,-0.384401,5,3.56355e-13,1.00684e-14,-5.9498e-13,-4.84536e-13
53.1159,33.0889,-0.384401,5,3.35524e-13,-6.89571e-15,-5.96769e-13,3.21272e-13
53.2993,33.0147,-0.384401,5,3.1463e-13,4.35232e-15,-5.96082e-13,-3.66845e-13
53.4826,32.9405,-0.384401,5,2.9376e-13,-8.49129e-15,-5.85318e-13,-8.30304e-14
53.666,32.8663,-0.384401,5,2.73267e-13,-1.13983e-14,-5.93894e-13,-1.45936e-14
53.8493,32.7922,-0.384401,5,2.52474e-13,-1.19092e-14,-5.81371e-13,5.85794e-13
54.0327,32.718,-0.384401,5,2.3212e-13,8.60004e-15,-5.81132e-13,2.02922e-15
54.2161,32.6438,-0.384401,5,2.11774e-13,8.67109e-15,-5.92784e-13,-5.24537e-13
54.3994,32.5697,-0.384401,5,1.91019e-13,-9.69347e-15,-5.99608e-13,5.83518e-13
54.5828,32.4955,-0.384401,5,1.70026e-13,1.07361e-14,-5.84865e-13,-2.07493e-13
54.7661,32.4213,-0.384401,5,1.49549e-13,3.47154e-15,-5.90218e-13,2.10512e-13
54.9495,32.3471,-0.384401,5,1.28885e-13,1.08418e-14,-5.81098e-13,-1.38246e-13
55.1329,32.273,-0.384401,5,1.0854e-13,6.00166e-15,-5.93542e-13,-1.44046e-13
55.3162,32.1988,-0.384401,5,8.77591e-14,9.58455e-16,-5.92993e-13,-3.60959e-13
55.4996,32.1246,-0.384401,5,6.69976e-14,-1.16791e-14,-5.84516e-13,3.62141e-13
55.6829,32.0504,-0.384401,5,4.65329e-14,9.99835e-16,-5.81547e-13,8.19512e-14
55.8663,31.9763,-0.384401,5,2.61721e-14,3.86903e-15,-5.89287e-13,-2.19706e-13
56.0497,31.9021,-0.384401,5,5.54037e-15,-3.82308e-15,-5.91075e-13,2.87101e-13
56.233,31.8279,-0.384401,5,-1.5154e-14,6.22861e-15,-5.88717e-13,-5.12674e-13
56.4164,31.7537,-0.384401,5,-3.57658e-14,-1.17206e-14,-5.86133e-13,3.15727e-13
56.5997,31.6796,-0.384401,5,-5.62872e-14,-6.66681e-16,-5.85005e-13,-7.66121e-14
56.7831,31.6054,-0.384401,5,-7.6769e-14,-3.34895e-15,-5.95393e-13,-1.10425e-13
56.9665,31.5312,-0.384401,5,-9.76145e-14,-7.21505e-15,-5.80293e-13,3.06242e-13
57.1498,31.457,-0.384401,5,-1.17931e-13,3.50677e-15,-5.90751e-13,4.8521e-14
57.3332,31.3829,-0.384401,5,-1.38614e-13,5.20554e-15,-5.99965e-13,-1.72446e-13
57.5165,31.3087,-0.384401,5,-1.5962e-13,-8.31975e-16,-5.97429e-13,-2.0291e-13
57.6999,31.2345,-0.384401,5,-1.80537e-13,-7.93604e-15,-5.9515e-13,2.56725e-13
57.8833,31.1604,-0.384401,5,-2.01374e-13,1.05215e-15,-5.89495e-13,8.37492e-14
58.0666,31.0862,-0.384401,5,-2.22013e-13,3.98429e-15,-5.92842e-13,-4.42703e-13
58.25,31.012,-0.384401,5,-2.42769e-13,-1.15152e-14,-5.91406e-13,2.41889e-13
58.4333,30.9378,-0.384401,5,-2.63475e-13,-3.04642e-15,-5.90259e-13,8.46108e-14
58.6167,30.8637,-0.384401,5,-2.84141e-13,-8.41072e-17,-6.02672e-13,-2.50502e-13
58.8001,30.7895,-0.384401,5,-3.05241e-13,-8.85442e-15,-6.0625e-13,2.08647e-13
58.9834,30.7153,-0.384401,5,-3.26467e-13,-1.54947e-15,-6.00774e-13,-3.61366e-14
59.1668,30.6411,-0.384401,5,-3.47501e-13,-2.81465e-15,-6.00269e-13,3.38535e-13
59.3501,30.567,-0.384401,5,-3.68517e-13,9.03778e-15,-5.99193e-13,3.48404e-14
59.5335,30.4928,-0.384401,5,-3.89496e-13,1.02576e-14,-6.06451e-13,-2.90747e-13
59.7169,30.4186,-0.384401,5,-4.10729e-13,7.82297e-17,-6.09627e-13,3.45934e-13
59.9002,30.3444,-0.384401,5,-4.32072e-13,1.21897e-14,-6.07057e-13,-2.34174e-13
60.0836,30.2703,-0.384401,5,-4.53326e-13,3.99105e-15,-6.00481e-13,-1.27303e-13
60.2669,30.1961,-0.384401,5,-4.7435e-13,-4.65938e-16,-6.05109e-13,1.04056e-13
60.4503,30.1219,-0.384401,5,-4.95536e-13,3.17715e-15,-6.11402e-13,1.45822e-14
60.6336,30.0477,-0.384401,5,-5.16942e-13,3.68769e-15,-6.06056e-13,-1.85976e-13
60.817,29.9736,-0.384401,5,-5.38161e-13,-2.82351e-15,-6.19454e-13,1.89405e-13
61.0004,29.8994,-0.384401,5,-5.59849e-13,3.80774e-15,-6.23971e-13,-3.49843e-13
61.1837,29.8252,-0.384401,5,-5.81695e-13,-8.44061e-15,-6.12618e-13,1.03974e-13
