x,y,theta,v,phi,a,omega,jerk
13.4619,15.4476,0.75946,1,0,0,0,2.28968
13.5243,15.5068,0.761648,1.00021,0.000581384,0.197095,0.83946,1.98168
13.5865,15.5662,0.763845,1.01737,0.073281,0.367678,0.677303,1.68267
13.6497,15.6268,0.7692,1.0492,0.131937,0.512521,0.511392,1.40038
13.7145,15.6895,0.777289,1.09348,0.176225,0.633066,0.340573,1.14029
13.7816,15.7555,0.78771,1.14811,0.20572,0.731222,0.164833,0.905551
13.8512,15.8255,0.799997,1.21117,0.219995,0.809171,5.58932e-05,0.697031
13.9238,15.9003,0.813554,1.28092,0.22,0.869171,3.23512e-08,0.513595
13.9995,15.9803,0.827702,1.35581,0.22,0.913381,-8.75811e-09,0.353989
14.0784,16.0662,0.842479,1.43449,0.22,0.943853,-5.80599e-08,0.216844
14.1605,16.1583,0.857915,1.51577,0.22,0.962519,-1.19048e-07,0.100686
14.2457,16.257,0.874027,1.59865,0.22,0.971186,-1.96004e-07,0.00393487
14.334,16.3624,0.890822,1.68226,0.22,0.971524,-2.96831e-07,-0.0750863
14.4249,16.475,0.908302,1.76588,0.22,0.965061,-4.35871e-07,-0.138149
14.5184,16.5947,0.926459,1.84894,0.219999,0.953169,-6.40324e-07,-0.187113
14.6139,16.7219,0.945281,1.93097,0.219999,0.937062,-8.63307e-07,-0.223923
14.7111,16.8566,0.964753,2.0116,0.219999,0.917787,-1.13236e-06,-0.250455
14.8097,16.9988,0.984865,2.09057,0.219999,0.896228,-1.51904e-06,-0.268444
14.9091,17.1486,1.00561,2.16767,0.219999,0.873121,-1.04744e-05,-0.279477
15.0089,17.3061,1.02699,2.24279,0.219998,0.849063,-0.0297563,-0.284988
15.1088,17.4712,1.04898,2.31583,0.217421,0.824532,-0.0887195,-0.286313
15.208,17.6439,1.07131,2.38676,0.209738,0.799886,-0.134146,-0.284683
15.3064,17.8242,1.09341,2.45556,0.19812,0.775381,-0.167204,-0.28115
15.4034,18.0118,1.11479,2.52226,0.18364,0.751179,-0.189266,-0.27655
15.4989,18.2066,1.13505,2.58688,0.167249,0.727374,-0.201801,-0.271506
15.5928,18.4083,1.1539,2.64944,0.149773,0.704003,-0.206293,-0.266445
15.6851,18.6167,1.17112,2.71,0.131907,0.681067,-0.204179,-0.261631
15.7758,18.8315,1.18657,2.76858,0.114225,0.658546,-0.196813,-0.257203
15.865,19.0523,1.2002,2.82523,0.0971802,0.636406,-0.18544,-0.253203
15.9531,19.2788,1.21199,2.87997,0.0811205,0.614611,-0.17118,-0.249617
16.04,19.5108,1.22199,2.93284,0.0662959,0.593124,-0.155018,-0.246392
16.1262,19.7479,1.23029,2.98386,0.0528709,0.571914,-0.137806,-0.243456
16.2119,19.9898,1.23701,3.03305,0.0409365,0.550958,-0.120259,-0.240738
16.2974,20.2363,1.24227,3.08044,0.0305218,0.530235,-0.102965,-0.238169
16.3829,20.4872,1.24624,3.12605,0.0216048,0.509734,-0.0863864,-0.235691
16.4686,20.742,1.24908,3.1699,0.0141235,0.489445,-0.0708744,-0.23326
16.5548,21.0007,1.25094,3.212,0.00798555,0.469366,-0.0566757,-0.230841
16.6417,21.263,1.25198,3.25237,0.00307728,0.449496,-0.0439465,-0.228413
16.7294,21.5287,1.25236,3.29104,-0.000728612,0.429834,-0.0327647,-0.225963
16.818,21.7976,1.25221,3.32801,-0.00356612,0.410383,-0.0231428,-0.223483
16.9076,22.0694,1.25166,3.36331,-0.00557035,0.391146,-0.0150405,-0.220972
16.9984,22.3442,1.25082,3.39696,-0.0068729,0.372125,-0.00837725,-0.218433
17.0903,22.6215,1.24979,3.42897,-0.0075984,0.353322,-0.00304256,-0.215869
17.1833,22.9015,1.24865,3.45936,-0.00786189,0.33474,0.00109346,-0.213284
17.2775,23.1837,1.24746,3.48815,-0.00776719,0.316381,0.00417181,-0.210684
17.3729,23.4682,1.24628,3.51537,-0.0074059,0.298245,0.00633733,-0.208073
17.4693,23.7549,1.24516,3.54102,-0.00685707,0.280334,0.00773288,-0.205455
17.5667,24.0435,1.24411,3.56513,-0.00618738,0.262649,0.00849485,-0.202833
17.6651,24.3339,1.24316,3.58772,-0.00545171,0.245189,0.00874986,-0.200211
17.7644,24.6261,1.24231,3.60881,-0.00469394,0.227955,0.00861249,-0.197591
17.8645,24.92,1.24159,3.62842,-0.00394808,0.210946,0.00818401,-0.194975
17.9654,25.2153,1.24097,3.64656,-0.00323932,0.194163,0.00755185,-0.192364
18.067,25.5121,1.24046,3.66327,-0.00258531,0.177604,0.00678968,-0.189759
18.1692,25.8102,1.24006,3.67854,-0.00199731,0.16127,0.00595799,-0.187161
18.2719,26.1095,1.23975,3.69241,-0.00148133,0.145159,0.00510503,-0.184572
18.3751,26.4099,1.23952,3.7049,-0.00103922,0.129271,0.00426794,-0.18199
18.4788,26.7113,1.23935,3.71602,-0.000669603,0.113606,0.00347409,-0.179417
18.5828,27.0135,1.23925,3.72579,-0.000368737,0.0981616,0.00274244,-0.176852
18.6871,27.3166,1.23919,3.73423,-0.000131234,0.0829382,0.00208486,-0.174297
18.7917,27.6203,1.23917,3.74136,4.93207e-05,0.0679348,0.00150744,-0.17175
18.8964,27.9246,1.23918,3.7472,0.000179869,0.0531507,0.00101173,-0.169211
19.0014,28.2294,1.23921,3.75177,0.000267488,0.0385851,0.000595743,-0.166682
19.1064,28.5346,1.23926,3.75509,0.000319081,0.0242372,0.000254977,-0.16416
19.2115,28.84,1.23931,3.75717,0.000341162,0.0101063,-1.68134e-05,-0.161648
19.3167,29.1456,1.23937,3.75804,0.000339706,-0.00380825,-0.000226924,-0.159143
19.4219,29.4513,1.23942,3.75771,0.000320054,-0.0175072,-0.000383156,-0.156647
19.527,29.757,1.23948,3.75621,0.000286872,-0.0309913,-0.000493382,-0.154158
19.6321,30.0625,1.23952,3.75354,0.000244143,-0.0442612,-0.000565226,-0.151678
19.7371,30.3678,1.23956,3.74973,0.000195193,-0.0573176,-0.000605823,-0.149206
19.842,30.6729,1.23959,3.7448,0.000142727,-0.0701612,-0.00062167,-0.146741
19.9467,30.9775,1.23962,3.73876,8.8889e-05,-0.0827926,-0.000618533,-0.144284
20.0513,31.2816,1.23963,3.73164,3.53224e-05,-0.0952125,-0.000601408,-0.141835
20.1556,31.5852,1.23964,3.72344,-1.67612e-05,-0.107422,-0.000574521,-0.139393
20.2598,31.8881,1.23963,3.7142,-6.65163e-05,-0.11942,-0.000541362,-0.136959
20.3636,32.1902,1.23962,3.70393,-0.0001134,-0.13121,-0.000504734,-0.134533
20.4672,32.4916,1.23961,3.69264,-0.000157111,-0.14279,-0.000466816,-0.132115
20.5705,32.7919,1.23958,3.68035,-0.000197539,-0.154163,-0.000429239,-0.129704
20.6734,33.0913,1.23955,3.66709,-0.000234712,-0.165328,-0.000393161,-0.127302
20.776,33.3896,1.23951,3.65287,-0.000268761,-0.176286,-0.000359337,-0.124907
20.8782,33.6868,1.23947,3.6377,-0.00029988,-0.187038,-0.000328195,-0.12252
20.98,33.9827,1.23942,3.62161,-0.000328303,-0.197584,-0.000299901,-0.120142
21.0813,34.2773,1.23937,3.60461,-0.000354275,-0.207926,-0.000274417,-0.117771
21.1822,34.5705,1.23932,3.58672,-0.000378041,-0.218064,-0.000251558,-0.115409
21.2826,34.8622,1.23926,3.56797,-0.000399826,-0.227998,-0.000231037,-0.113056
21.3825,35.1524,1.2392,3.54835,-0.000419835,-0.23773,-0.000212512,-0.110711
21.4818,35.4411,1.23913,3.5279,-0.000438239,-0.24726,-0.000195618,-0.108375
21.5806,35.728,1.23907,3.50663,-0.00045518,-0.256589,-0.00018,-0.106048
21.6788,36.0132,1.239,3.48455,-0.000470768,-0.265717,-0.000165343,-0.10373
21.7765,36.2966,1.23893,3.4617,-0.000485087,-0.274646,-0.000151398,-0.101421
21.8735,36.5781,1.23885,3.43807,-0.000498199,-0.283377,-0.000137999,-0.0991213
21.9698,36.8578,1.23878,3.41369,-0.00051015,-0.291909,-0.000125087,-0.0968313
22.0655,37.1354,1.2387,3.38858,-0.000520983,-0.300244,-0.000112726,-0.0945509
22.1605,37.4109,1.23863,3.36275,-0.000530745,-0.308383,-0.000101119,-0.0922804
22.2549,37.6844,1.23855,3.33622,-0.000539502,-0.316327,-9.06193e-05,-0.0900199
22.3484,37.9557,1.23847,3.30901,-0.00054735,-0.324075,-8.17457e-05,-0.0877695
22.4413,38.2248,1.2384,3.28113,-0.00055443,-0.331631,-7.51863e-05,-0.0855295
22.5334,38.4916,1.23832,3.2526,-0.000560941,-0.338993,-7.18047e-05,-0.0833
22.6247,38.7561,1.23824,3.22344,-0.00056716,-0.346163,-7.26405e-05,-0.0810811
22.7152,39.0182,1.23816,3.19366,-0.00057345,-0.353143,-7.89029e-05,-0.0788731
22.8049,39.2778,1.23808,3.16328,-0.000580284,-0.359932,-9.19602e-05,-0.076676
22.8937,39.535,1.238,3.13232,-0.000588248,-0.366532,-0.00011332,-0.0744901
22.9817,39.7897,1.23792,3.10078,-0.000598061,-0.372945,-0.000144604,-0.0723155
23.0689,40.0418,1.23784,3.0687,-0.000610585,-0.379169,-0.000187505,-0.0701524
23.1551,40.2913,1.23776,3.03608,-0.000626823,-0.385208,-0.000243747,-0.068001
23.2405,40.5381,1.23768,3.00295,-0.000647932,-0.391062,-0.000315023,-0.0658613
23.325,40.7822,1.2376,2.9693,-0.000675214,-0.396731,-0.000402922,-0.0637337
23.4085,41.0236,1.23751,2.93518,-0.000710108,-0.402217,-0.000508852,-0.0616182
23.4911,41.2622,1.23742,2.90058,-0.000754176,-0.407521,-0.000633943,-0.059515
23.5727,41.498,1.23733,2.86552,-0.000809077,-0.412644,-0.000778944,-0.0574244
23.6534,41.7309,1.23723,2.83002,-0.000876536,-0.417587,-0.000944108,-0.0553465
23.733,41.9609,1.23713,2.7941,-0.000958298,-0.422351,-0.00112907,-0.0532816
23.8117,42.188,1.23701,2.75777,-0.00105608,-0.426938,-0.00133272,-0.0512299
23.8895,42.4122,1.23689,2.72104,-0.0011715,-0.431348,-0.00155307,-0.0491915
23.9661,42.6333,1.23675,2.68393,-0.001306,-0.435582,-0.00178714,-0.0471669
24.0418,42.8514,1.2366,2.64646,-0.00146077,-0.439642,-0.00203081,-0.0451563
24.1165,43.0665,1.23644,2.60864,-0.00163664,-0.443529,-0.00227872,-0.0431601
24.1901,43.2785,1.23625,2.57049,-0.00183398,-0.447245,-0.00252419,-0.0411785
24.2627,43.4874,1.23605,2.53201,-0.00205259,-0.450789,-0.00275911,-0.039212
24.3342,43.6931,1.23583,2.49323,-0.00229153,-0.454165,-0.0029739,-0.037261
24.4047,43.8956,1.23559,2.45416,-0.00254908,-0.457372,-0.00315751,-0.035326
24.4742,44.095,1.23532,2.41482,-0.00282253,-0.460413,-0.00329743,-0.0334073
24.5425,44.2912,1.23503,2.37521,-0.0031081,-0.463288,-0.00337973,-0.0315056
24.6098,44.4841,1.23471,2.33536,-0.00340079,-0.466,-0.00338921,-0.0296212
24.6761,44.6737,1.23437,2.29527,-0.0036943,-0.46855,-0.00330953,-0.0277548
24.7412,44.8601,1.234,2.25496,-0.00398092,-0.470939,-0.00312346,-0.0259068
24.8053,45.0432,1.23361,2.21445,-0.00425142,-0.473169,-0.0028131,-0.0240779
24.8683,45.223,1.23321,2.17375,-0.00449504,-0.475242,-0.00236029,-0.0222684
24.9302,45.3994,1.23278,2.13287,-0.00469945,-0.477159,-0.00174692,-0.0204789
24.9911,45.5725,1.23235,2.09182,-0.00485074,-0.478922,-0.000955414,-0.0187099
25.0508,45.7422,1.23191,2.05062,-0.00493348,-0.480532,3.08194e-05,-0.0169617
25.1094,45.9086,1.23147,2.00928,-0.00493081,-0.481992,0.00122684,-0.015235
25.1669,46.0716,1.23103,1.96782,-0.00482456,-0.483304,0.00264566,-0.01353
25.2233,46.2312,1.23061,1.92624,-0.00459544,-0.484468,0.00429763,-0.0118474
25.2786,46.3874,1.23022,1.88457,-0.00422325,-0.485488,0.00618991,-0.0101875
25.3327,46.5402,1.22987,1.8428,-0.00368719,-0.486365,0.0083259,-0.00855133
25.3857,46.6896,1.22956,1.80097,-0.00296615,-0.487101,0.0107047,-0.00693965
25.4375,46.8356,1.22931,1.75906,-0.00203909,-0.487699,0.0133206,-0.00535381
25.4882,46.9782,1.22914,1.71711,-0.000885493,-0.488159,0.0161626,-0.00379552
25.5377,47.1174,1.22905,1.67512,0.000514229,-0.488486,0.0192141,-0.002267
25.5859,47.2531,1.22906,1.6331,0.00217823,-0.488681,0.0224529,-0.000771127
25.633,47.3855,1.22919,1.59106,0.00412271,-0.488748,0.0258504,0.000688547
25.6788,47.5145,1.22944,1.54901,0.00636143,-0.488688,0.0293721,0.00210774
25.7234,47.64,1.22983,1.50697,0.00890513,-0.488507,0.0329774,0.00348144
25.7668,47.7622,1.23038,1.46495,0.0117611,-0.488207,0.0366203,0.00480407
25.8088,47.881,1.23109,1.42295,0.0149325,-0.487794,0.0402489,0.00606961
25.8496,47.9964,1.23197,1.38099,0.0184181,-0.487271,0.0438068,0.00727197
25.8891,48.1085,1.23302,1.33908,0.0222119,-0.486645,0.0472333,0.00840545
25.9272,48.2171,1.23427,1.29721,0.0263025,-0.485922,0.0504643,0.00946539
25.9641,48.3225,1.2357,1.25541,0.0306728,-0.485107,0.0534333,0.010449
25.9995,48.4245,1.23733,1.21368,0.0353003,-0.484208,0.0560723,0.0113562
26.0337,48.5231,1.23914,1.17203,0.0401563,-0.48323,0.0583131,0.0121911
26.0665,48.6185,1.24114,1.13046,0.0452064,-0.482181,0.0600886,0.0129631
26.098,48.7105,1.24332,1.08898,0.0504102,-0.481065,0.0613341,0.0136886
26.1281,48.7992,1.24567,1.0476,0.0557219,-0.479886,0.0619885,0.0143924
26.1569,48.8846,1.24817,1.00632,0.0610903,-0.478648,0.0619959,0.0151096
26.1843,48.9667,1.25082,0.965145,0.0664593,-0.477347,0.0613071,0.0158872
26.2104,49.0455,1.25359,0.924082,0.0717687,-0.475979,0.0598808,0.0167857
26.2352,49.121,1.25647,0.883137,0.0769545,-0.474534,0.0576851,0.0178804
26.2586,49.1933,1.25943,0.842316,0.0819502,-0.472995,0.0546986,0.0192628
26.2808,49.2623,1.26246,0.801627,0.0866873,-0.471337,0.0509118,0.0210413
26.3017,49.328,1.26552,0.761081,0.0910964,-0.469526,0.0463281,0.0233416
26.3214,49.3904,1.26859,0.72069,0.0951085,-0.467517,0.0409645,0.0263064
26.3398,49.4496,1.27164,0.680472,0.0986562,-0.465252,0.0348523,0.0300947
26.3571,49.5056,1.27466,0.640447,0.101674,-0.462662,0.0280374,0.0348801
26.3731,49.5583,1.27761,0.600645,0.104103,-0.459659,0.0205804,0.0408487
26.388,49.6077,1.28048,0.561101,0.105885,-0.456143,0.0125561,0.048196
26.4018,49.654,1.28324,0.521858,0.106972,-0.451994,0.00405332,0.0571231
26.4146,49.697,1.28586,0.48297,0.107323,-0.447077,-0.00482689,0.0678325
26.4262,49.7369,1.28835,0.444505,0.106905,-0.441238,-0.0139722,0.0805229
26.4369,49.7736,1.29067,0.40654,0.105695,-0.434307,-0.0232611,0.0953839
26.4465,49.8072,1.29283,0.36917,0.103681,-0.426096,-0.0325654,0.11259
26.4552,49.8378,1.29482,0.332505,0.100861,-0.416405,-0.0417523,0.132295
26.463,49.8653,1.29664,0.296672,0.0972447,-0.405017,-0.0506883,0.154625
26.4699,49.8899,1.29829,0.261817,0.0928549,-0.391707,-0.0592419,0.179676
26.4759,49.9116,1.29977,0.228105,0.0877244,-0.37624,-0.0672874,0.207503
26.4812,49.9305,1.30111,0.195721,0.0818972,-0.358378,-0.0747088,0.238122
26.4856,49.9467,1.30231,0.164873,0.0754272,-0.337881,-0.0814037,0.271501
26.4894,49.9604,1.30339,0.135785,0.0683774,-0.31451,-0.0872878,0.307557
26.4924,49.9717,1.30438,0.108706,0.060818,-0.288036,-0.0922987,0.346158
26.4949,49.9807,1.30528,0.0839026,0.0528247,-0.258239,-0.096401,0.387119
26.4968,49.9877,1.30613,0.0616609,0.0444761,-0.224915,-0.0995903,0.4302
26.4981,49.9928,1.30695,0.0422842,0.0358513,-0.187884,-0.101898,0.475109
26.4991,49.9963,1.30775,0.0260918,0.0270266,-0.146987,-0.103398,0.521503
26.4996,49.9985,1.30855,0.0134164,0.018072,-0.102096,-0.104199,0.568977
26.4999,49.9996,1.30937,0.00460186,0.00904813,-0.0531187,-0.104479,0.617088
26.5,50,1.31019,0,0,0,0,0